 BEGIN header
 Number of ions         15
 Number of branches     45
 Number of wavevectors  1
 Frequencies in         cm-1
 IR intensities in      (D/A)**2/amu
 Raman intensities in   A**4
 Unit cell vectors (A)
    8.000000    0.000000    0.000000
    0.000000    8.000000    0.000000
    0.000000    0.000000    6.000000
 Fractional Co-ordinates
     1     0.285776    0.973956    0.000000   H         1.007940
     2     0.153712    0.693589    0.000000   H         1.007940
     3     0.846816    0.667396    0.000000   H         1.007940
     4     0.669912    0.922557    0.000000   H         1.007940
     5     0.802265    0.200603    0.000000   H         1.007940
     6     0.089413    0.347543    0.147416   H         1.007940
     7     0.089413    0.347543    0.852584   H         1.007940
     8     0.265654    0.268849    0.000000   H         1.007940
     9     0.149343    0.962389    0.000000   C        12.010700
    10     0.075920    0.806389    0.000000   C        12.010700
    11     0.904224    0.791079    0.000000   C        12.010700
    12     0.806342    0.932950    0.000000   C        12.010700
    13     0.879971    0.088132    0.000000   C        12.010700
    14     0.052354    0.105578    0.000000   C        12.010700
    15     0.128480    0.275213    0.000000   C        12.010700
 END header
     q-pt=    1    0.000000  0.000000  0.000000      1.000000
       1      -0.070691                                                         
       2      -0.058143                                                         
       3      -0.041149                                                         
       4      36.101798                                                         
       5      41.508478                                                         
       6      52.102788                                                         
       7      71.831159                                                         
       8     207.734270                                                         
       9     336.933251                                                         
      10     410.306701                                                         
      11     467.273965                                                         
      12     516.501838                                                         
      13     622.328626                                                         
      14     695.415912                                                         
      15     724.302698                                                         
      16     786.653325                                                         
      17     823.983219                                                         
      18     879.294558                                                         
      19     956.464000                                                         
      20     956.490910                                                         
      21     974.979986                                                         
      22    1001.869484                                                         
      23    1012.378144                                                         
      24    1025.802258                                                         
      25    1076.253017                                                         
      26    1135.776912                                                         
      27    1154.605968                                                         
      28    1209.264112                                                         
      29    1293.934225                                                         
      30    1324.270015                                                         
      31    1350.760204                                                         
      32    1398.960857                                                         
      33    1400.319932                                                         
      34    1443.372087                                                         
      35    1479.466597                                                         
      36    1587.140243                                                         
      37    1608.481531                                                         
      38    2926.817215                                                         
      39    2984.891476                                                         
      40    3024.945469                                                         
      41    3032.217209                                                         
      42    3044.580847                                                         
      43    3057.188245                                                         
      44    3070.072545                                                         
      45    3101.312993                                                         
                        Phonon Eigenvectors
Mode Ion                X                                   Y                                   Z
   1   1 -0.000000011036  0.000000000000     -0.000000006504  0.000000000000     -0.107159386070  0.000000000000
   1   2 -0.000000018687  0.000000000000     -0.000000002932  0.000000000000     -0.117754440622  0.000000000000
   1   3 -0.000000019394  0.000000000000      0.000000005272  0.000000000000     -0.119775770244  0.000000000000
   1   4 -0.000000012651  0.000000000000      0.000000009940  0.000000000000     -0.109259066076  0.000000000000
   1   5 -0.000000004984  0.000000000000      0.000000006424  0.000000000000     -0.098698203474  0.000000000000
   1   6  0.008969076020  0.000000000000     -0.003064702559  0.000000000000     -0.094112251656  0.000000000000
   1   7 -0.008969079141  0.000000000000      0.003064699874  0.000000000000     -0.094112251644  0.000000000000
   1   8 -0.000000003440  0.000000000000     -0.000000005605  0.000000000000     -0.111356083751  0.000000000000
   1   9 -0.000000039211  0.000000000000     -0.000000009893  0.000000000000     -0.359869298064  0.000000000000
   1  10 -0.000000054314  0.000000000000     -0.000000002909  0.000000000000     -0.380963333435  0.000000000000
   1  11 -0.000000055694  0.000000000000      0.000000012926  0.000000000000     -0.384134433893  0.000000000000
   1  12 -0.000000042663  0.000000000000      0.000000021759  0.000000000000     -0.364528849218  0.000000000000
   1  13 -0.000000027874  0.000000000000      0.000000014819  0.000000000000     -0.343881176724  0.000000000000
   1  14 -0.000000026184  0.000000000000     -0.000000001094  0.000000000000     -0.343530627675  0.000000000000
   1  15 -0.000000011384  0.000000000000     -0.000000007841  0.000000000000     -0.342029950124  0.000000000000
   2   1 -0.094757162451  0.000000000000     -0.043766444877  0.000000000000      0.000000012312  0.000000000000
   2   2 -0.158679771048  0.000000000000     -0.013877348770  0.000000000000      0.000000013530  0.000000000000
   2   3 -0.164446435892  0.000000000000      0.054525095930  0.000000000000      0.000000013762  0.000000000000
   2   4 -0.108294274542  0.000000000000      0.093379871053  0.000000000000      0.000000012553  0.000000000000
   2   5 -0.044343418734  0.000000000000      0.064096316580  0.000000000000      0.000000011340  0.000000000000
   2   6 -0.015641290311  0.000000000000     -0.000630455871  0.000000000000     -0.000021146595  0.000000000000
   2   7 -0.015641288250  0.000000000000     -0.000630456575  0.000000000000      0.000021168221  0.000000000000
   2   8 -0.031377484039  0.000000000000     -0.036320907965  0.000000000000      0.000000012795  0.000000000000
   2   9 -0.336429100427  0.000000000000     -0.045950460980  0.000000000000      0.000000041348  0.000000000000
   2  10 -0.462558546193  0.000000000000      0.012435051752  0.000000000000      0.000000043772  0.000000000000
   2  11 -0.474016508781  0.000000000000      0.144380880880  0.000000000000      0.000000044136  0.000000000000
   2  12 -0.365437527708  0.000000000000      0.217774738620  0.000000000000      0.000000041883  0.000000000000
   2  13 -0.241972075951  0.000000000000      0.159993513784  0.000000000000      0.000000039511  0.000000000000
   2  14 -0.227803821223  0.000000000000      0.027490002436  0.000000000000      0.000000039471  0.000000000000
   2  15 -0.104189100180  0.000000000000     -0.028794755690  0.000000000000      0.000000039298  0.000000000000
   3   1  0.012935898336  0.000000000000      0.128466493438  0.000000000000     -0.000000001231  0.000000000000
   3   2  0.039635220454  0.000000000000      0.116472236451  0.000000000000     -0.000000001352  0.000000000000
   3   3  0.043504673744  0.000000000000      0.086423579302  0.000000000000     -0.000000001376  0.000000000000
   3   4  0.018128412040  0.000000000000      0.068668555399  0.000000000000     -0.000000001255  0.000000000000
   3   5 -0.009706188995  0.000000000000      0.081859235005  0.000000000000     -0.000000001134  0.000000000000
   3   6 -0.020587946079  0.000000000000      0.110600337273  0.000000000000      0.000308615057  0.000000000000
   3   7 -0.020587946285  0.000000000000      0.110600337343  0.000000000000     -0.000308617218  0.000000000000
   3   8 -0.014354786305  0.000000000000      0.124700113841  0.000000000000     -0.000000001279  0.000000000000
   3   9  0.048439415565  0.000000000000      0.401741364123  0.000000000000     -0.000000004133  0.000000000000
   3  10  0.101638597835  0.000000000000      0.377671909659  0.000000000000     -0.000000004375  0.000000000000
   3  11  0.107147855509  0.000000000000      0.318962803542  0.000000000000     -0.000000004412  0.000000000000
   3  12  0.058787363300  0.000000000000      0.284072129647  0.000000000000     -0.000000004187  0.000000000000
   3  13  0.006296945440  0.000000000000      0.310274733257  0.000000000000     -0.000000003949  0.000000000000
   3  14  0.000833153572  0.000000000000      0.370319632445  0.000000000000     -0.000000003945  0.000000000000
   3  15 -0.051168916168  0.000000000000      0.394685946834  0.000000000000     -0.000000003928  0.000000000000
   4   1  0.000000000000  0.000000000000     -0.000000000000  0.000000000000     -0.222773078512  0.000000000000
   4   2 -0.000000000000  0.000000000000     -0.000000000000  0.000000000000     -0.158368508085  0.000000000000
   4   3 -0.000000000000  0.000000000000      0.000000000000  0.000000000000      0.068758959463  0.000000000000
   4   4 -0.000000000000  0.000000000000      0.000000000000  0.000000000000      0.259348099895  0.000000000000
   4   5  0.000000000000  0.000000000000      0.000000000000  0.000000000000      0.198643896538  0.000000000000
   4   6 -0.043794471269  0.000000000000      0.061359055749  0.000000000000     -0.133758591362  0.000000000000
   4   7  0.043794471269  0.000000000000     -0.061359055749  0.000000000000     -0.133758591362  0.000000000000
   4   8  0.000000000000  0.000000000000     -0.000000000000  0.000000000000     -0.025797415136  0.000000000000
   4   9  0.000000000000  0.000000000000     -0.000000000000  0.000000000000     -0.401967398674  0.000000000000
   4  10 -0.000000000000  0.000000000000     -0.000000000000  0.000000000000     -0.286455499554  0.000000000000
   4  11 -0.000000000000  0.000000000000      0.000000000000  0.000000000000      0.155835000060  0.000000000000
   4  12  0.000000000000  0.000000000000      0.000000000001  0.000000000000      0.511873682707  0.000000000000
   4  13  0.000000000000  0.000000000000      0.000000000000  0.000000000000      0.397938501242  0.000000000000
   4  14  0.000000000000  0.000000000000      0.000000000000  0.000000000000     -0.069705559987  0.000000000000
   4  15  0.000000000001  0.000000000000     -0.000000000000  0.000000000000     -0.269965297913  0.000000000000
   5   1 -0.040600149858  0.000000000000      0.101517017317  0.000000000000     -0.000000000000  0.000000000000
   5   2  0.072723338048  0.000000000000      0.048514805754  0.000000000000     -0.000000000000  0.000000000000
   5   3  0.085756144693  0.000000000000     -0.078124943730  0.000000000000      0.000000000000  0.000000000000
   5   4 -0.019416207120  0.000000000000     -0.148263265772  0.000000000000      0.000000000000  0.000000000000
   5   5 -0.133391791582  0.000000000000     -0.095494189734  0.000000000000      0.000000000000  0.000000000000
   5   6 -0.195314388984  0.000000000000      0.024354722067  0.000000000000      0.000039425226  0.000000000000
   5   7 -0.195314388983  0.000000000000      0.024354722067  0.000000000000     -0.000039425227  0.000000000000
   5   8 -0.163088939907  0.000000000000      0.097223828045  0.000000000000      0.000000000000  0.000000000000
   5   9 -0.123417228490  0.000000000000      0.162122901448  0.000000000000     -0.000000000001  0.000000000000
   5  10  0.096133879993  0.000000000000      0.058327678272  0.000000000000     -0.000000000000  0.000000000000
   5  11  0.117988444462  0.000000000000     -0.186377830590  0.000000000000      0.000000000000  0.000000000000
   5  12 -0.082829091016  0.000000000000     -0.322238653301  0.000000000000      0.000000000001  0.000000000000
   5  13 -0.300303602889  0.000000000000     -0.219380708089  0.000000000000      0.000000000001  0.000000000000
   5  14 -0.324871318497  0.000000000000      0.026110168489  0.000000000000      0.000000000000  0.000000000000
   5  15 -0.571739722521  0.000000000000      0.138588567306  0.000000000000     -0.000000000000  0.000000000000
   6   1  0.000000000000  0.000000000000     -0.000000000000  0.000000000000      0.062199375338  0.000000000000
   6   2 -0.000000000000  0.000000000000     -0.000000000000  0.000000000000     -0.027030358417  0.000000000000
   6   3 -0.000000000000  0.000000000000      0.000000000000  0.000000000000     -0.106169071170  0.000000000000
   6   4  0.000000000000  0.000000000000      0.000000000000  0.000000000000     -0.045265658458  0.000000000000
   6   5  0.000000000000  0.000000000000      0.000000000000  0.000000000000      0.049625847436  0.000000000000
   6   6 -0.422115861806  0.000000000000      0.212320283246  0.000000000000     -0.267937584741  0.000000000000
   6   7  0.422115861806  0.000000000000     -0.212320283246  0.000000000000     -0.267937584741  0.000000000000
   6   8  0.000000000000  0.000000000000     -0.000000000000  0.000000000000      0.542022141389  0.000000000000
   6   9  0.000000000000  0.000000000000     -0.000000000000  0.000000000000      0.104609152740  0.000000000000
   6  10 -0.000000000000  0.000000000000     -0.000000000000  0.000000000000     -0.071061264572  0.000000000000
   6  11 -0.000000000000  0.000000000000      0.000000000000  0.000000000000     -0.202647883235  0.000000000000
   6  12  0.000000000000  0.000000000000      0.000000000000  0.000000000000     -0.101555692345  0.000000000000
   6  13  0.000000000000  0.000000000000      0.000000000000  0.000000000000      0.075788964571  0.000000000000
   6  14  0.000000000000  0.000000000000     -0.000000000000  0.000000000000      0.135846502881  0.000000000000
   6  15  0.000000000000  0.000000000000     -0.000000000000  0.000000000000      0.064449771030  0.000000000000
   7   1 -0.000000000000  0.000000000000      0.000000000000  0.000000000000     -0.048994372585  0.000000000000
   7   2 -0.000000000000  0.000000000000      0.000000000000  0.000000000000     -0.190676806391  0.000000000000
   7   3 -0.000000000000  0.000000000000      0.000000000000  0.000000000000     -0.174745136473  0.000000000000
   7   4 -0.000000000000  0.000000000000      0.000000000000  0.000000000000     -0.000416344201  0.000000000000
   7   5 -0.000000000000  0.000000000000      0.000000000000  0.000000000000      0.155608401443  0.000000000000
   7   6  0.073206196100  0.000000000000     -0.102915472735  0.000000000000      0.253259641668  0.000000000000
   7   7 -0.073206196100  0.000000000000      0.102915472735  0.000000000000      0.253259641668  0.000000000000
   7   8 -0.000000000000  0.000000000000      0.000000000000  0.000000000000      0.065596402045  0.000000000000
   7   9 -0.000000000000  0.000000000000      0.000000000000  0.000000000000     -0.135825052243  0.000000000000
   7  10 -0.000000000000  0.000000000000      0.000000000000  0.000000000000     -0.411200801840  0.000000000000
   7  11 -0.000000000000  0.000000000000      0.000000000000  0.000000000000     -0.375157962174  0.000000000000
   7  12 -0.000000000000  0.000000000000      0.000000000000  0.000000000000     -0.041676678488  0.000000000000
   7  13 -0.000000000000  0.000000000000      0.000000000000  0.000000000000      0.251242113892  0.000000000000
   7  14 -0.000000000000  0.000000000000      0.000000000000  0.000000000000      0.199707634368  0.000000000000
   7  15 -0.000000000000  0.000000000000      0.000000000000  0.000000000000      0.555865008260  0.000000000000
   8   1  0.000000000000  0.000000000000      0.000000000000  0.000000000000     -0.136867744582  0.000000000000
   8   2  0.000000000000  0.000000000000      0.000000000000  0.000000000000      0.025305796448  0.000000000000
   8   3  0.000000000000  0.000000000000     -0.000000000000  0.000000000000      0.256906660960  0.000000000000
   8   4  0.000000000000  0.000000000000     -0.000000000000  0.000000000000      0.061271403371  0.000000000000
   8   5 -0.000000000000  0.000000000000     -0.000000000000  0.000000000000     -0.133824942347  0.000000000000
   8   6 -0.165665731407  0.000000000000     -0.097176990956  0.000000000000      0.121545276494  0.000000000000
   8   7  0.165665731407  0.000000000000      0.097176990956  0.000000000000      0.121545276494  0.000000000000
   8   8  0.000000000000  0.000000000000     -0.000000000000  0.000000000000      0.324671832416  0.000000000000
   8   9 -0.000000000000  0.000000000000     -0.000000000000  0.000000000000     -0.380851278055  0.000000000000
   8  10  0.000000000000  0.000000000000     -0.000000000000  0.000000000000     -0.014597765296  0.000000000000
   8  11  0.000000000000  0.000000000000     -0.000000000000  0.000000000000      0.379224625232  0.000000000000
   8  12  0.000000000000  0.000000000000     -0.000000000000  0.000000000000      0.044222905591  0.000000000000
   8  13 -0.000000000000  0.000000000000     -0.000000000000  0.000000000000     -0.367318573608  0.000000000000
   8  14  0.000000000000  0.000000000000     -0.000000000000  0.000000000000     -0.306833840428  0.000000000000
   8  15  0.000000000000  0.000000000000     -0.000000000000  0.000000000000      0.405128967716  0.000000000000
   9   1 -0.066446434355  0.000000000000      0.135374755516  0.000000000000      0.000000000000  0.000000000000
   9   2  0.083034803584  0.000000000000      0.080332175872  0.000000000000     -0.000000000000  0.000000000000
   9   3  0.076588327799  0.000000000000     -0.039367392257  0.000000000000     -0.000000000000  0.000000000000
   9   4 -0.009356122589  0.000000000000     -0.115942768593  0.000000000000      0.000000000000  0.000000000000
   9   5 -0.152594056452  0.000000000000     -0.045138106739  0.000000000000     -0.000000000000  0.000000000000
   9   6  0.279160685052  0.000000000000      0.016913862467  0.000000000000      0.002434936734  0.000000000000
   9   7  0.279160685052  0.000000000000      0.016913862467  0.000000000000     -0.002434936734  0.000000000000
   9   8  0.120217085852  0.000000000000     -0.323196536461  0.000000000000     -0.000000000000  0.000000000000
   9   9 -0.207368448673  0.000000000000      0.235362266676  0.000000000000      0.000000000000  0.000000000000
   9  10  0.093808203264  0.000000000000      0.141141007259  0.000000000000     -0.000000000000  0.000000000000
   9  11  0.121663609014  0.000000000000     -0.070448360933  0.000000000000      0.000000000000  0.000000000000
   9  12 -0.049515126656  0.000000000000     -0.179368958456  0.000000000000      0.000000000000  0.000000000000
   9  13 -0.313838753613  0.000000000000     -0.006781679187  0.000000000000     -0.000000000000  0.000000000000
   9  14 -0.305180472274  0.000000000000      0.146919204012  0.000000000000      0.000000000000  0.000000000000
   9  15  0.454522113197  0.000000000000     -0.202310306759  0.000000000000      0.000000000000  0.000000000000
  10   1  0.000000000000  0.000000000000     -0.000000000000  0.000000000000      0.269128239251  0.000000000000
  10   2  0.000000000000  0.000000000000     -0.000000000000  0.000000000000     -0.281251636343  0.000000000000
  10   3 -0.000000000000  0.000000000000      0.000000000000  0.000000000000     -0.023273524274  0.000000000000
  10   4  0.000000000000  0.000000000000      0.000000000000  0.000000000000      0.268709689646  0.000000000000
  10   5  0.000000000000  0.000000000000      0.000000000000  0.000000000000     -0.277912027504  0.000000000000
  10   6  0.006761634289  0.000000000000      0.008936694034  0.000000000000     -0.003237057660  0.000000000000
  10   7 -0.006761634289  0.000000000000     -0.008936694034  0.000000000000     -0.003237057660  0.000000000000
  10   8 -0.000000000000  0.000000000000      0.000000000000  0.000000000000     -0.009567029000  0.000000000000
  10   9  0.000000000000  0.000000000000     -0.000000000000  0.000000000000      0.424690372001  0.000000000000
  10  10  0.000000000000  0.000000000000     -0.000000000000  0.000000000000     -0.415886428612  0.000000000000
  10  11  0.000000000000  0.000000000000      0.000000000000  0.000000000000     -0.015604717605  0.000000000000
  10  12  0.000000000000  0.000000000000      0.000000000000  0.000000000000      0.424330537264  0.000000000000
  10  13  0.000000000000  0.000000000000      0.000000000000  0.000000000000     -0.405500704014  0.000000000000
  10  14  0.000000000000  0.000000000000     -0.000000000000  0.000000000000      0.008146860748  0.000000000000
  10  15 -0.000000000000  0.000000000000     -0.000000000000  0.000000000000      0.001291184670  0.000000000000
  11   1 -0.000000000000  0.000000000000      0.000000000000  0.000000000000      0.203793385814  0.000000000000
  11   2 -0.000000000000  0.000000000000     -0.000000000000  0.000000000000      0.241750456204  0.000000000000
  11   3 -0.000000000000  0.000000000000      0.000000000000  0.000000000000     -0.196484804641  0.000000000000
  11   4  0.000000000000  0.000000000000      0.000000000000  0.000000000000      0.251712835853  0.000000000000
  11   5 -0.000000000000  0.000000000000      0.000000000000  0.000000000000      0.217922739885  0.000000000000
  11   6 -0.076403410685  0.000000000000     -0.166098776374  0.000000000000      0.081929440674  0.000000000000
  11   7  0.076403410685  0.000000000000      0.166098776374  0.000000000000      0.081929440674  0.000000000000
  11   8  0.000000000000  0.000000000000     -0.000000000000  0.000000000000      0.098271267537  0.000000000000
  11   9 -0.000000000000  0.000000000000      0.000000000000  0.000000000000      0.097490041046  0.000000000000
  11  10  0.000000000000  0.000000000000     -0.000000000000  0.000000000000      0.261277453357  0.000000000000
  11  11  0.000000000000  0.000000000000      0.000000000000  0.000000000000     -0.391386067442  0.000000000000
  11  12  0.000000000000  0.000000000000      0.000000000000  0.000000000000      0.249857045643  0.000000000000
  11  13 -0.000000000000  0.000000000000      0.000000000000  0.000000000000      0.081402153336  0.000000000000
  11  14 -0.000000000000  0.000000000000     -0.000000000000  0.000000000000     -0.600520184317  0.000000000000
  11  15  0.000000000000  0.000000000000     -0.000000000000  0.000000000000      0.001314944490  0.000000000000
  12   1 -0.050292446868  0.000000000000     -0.105662879907  0.000000000000      0.000000000000  0.000000000000
  12   2 -0.002312106059  0.000000000000      0.025482614957  0.000000000000      0.000000000000  0.000000000000
  12   3 -0.060140137423  0.000000000000     -0.120008500097  0.000000000000     -0.000000000000  0.000000000000
  12   4  0.022273920681  0.000000000000      0.019716943653  0.000000000000      0.000000000000  0.000000000000
  12   5 -0.039001056588  0.000000000000     -0.106126161164  0.000000000000     -0.000000000000  0.000000000000
  12   6  0.069022820211  0.000000000000      0.152109820677  0.000000000000      0.000191575021  0.000000000000
  12   7  0.069022820211  0.000000000000      0.152109820677  0.000000000000     -0.000191575021  0.000000000000
  12   8  0.065487074500  0.000000000000      0.148654465574  0.000000000000     -0.000000000000  0.000000000000
  12   9 -0.208436050604  0.000000000000      0.004118371143  0.000000000000      0.000000000000  0.000000000000
  12  10 -0.245695670413  0.000000000000     -0.071928083671  0.000000000000     -0.000000000000  0.000000000000
  12  11 -0.202846820754  0.000000000000     -0.415945787939  0.000000000000     -0.000000000000  0.000000000000
  12  12  0.100573227770  0.000000000000     -0.226302259492  0.000000000000      0.000000000000  0.000000000000
  12  13  0.162068501251  0.000000000000     -0.166043182104  0.000000000000     -0.000000000000  0.000000000000
  12  14  0.152407683576  0.000000000000      0.308467705004  0.000000000000     -0.000000000000  0.000000000000
  12  15  0.222605271149  0.000000000000      0.515282239107  0.000000000000     -0.000000000000  0.000000000000
  13   1  0.118296724020  0.000000000000     -0.012279036657  0.000000000000      0.000000000000  0.000000000000
  13   2 -0.095490094387  0.000000000000      0.098137216843  0.000000000000      0.000000000000  0.000000000000
  13   3  0.115958698596  0.000000000000     -0.052913155982  0.000000000000      0.000000000000  0.000000000000
  13   4 -0.136063475262  0.000000000000      0.014930073237  0.000000000000      0.000000000000  0.000000000000
  13   5  0.086001009951  0.000000000000     -0.081741953921  0.000000000000      0.000000000000  0.000000000000
  13   6  0.028411098906  0.000000000000     -0.008535578136  0.000000000000      0.001361364337  0.000000000000
  13   7  0.028411098906  0.000000000000     -0.008535578136  0.000000000000     -0.001361364337  0.000000000000
  13   8  0.018499437738  0.000000000000     -0.019888066591  0.000000000000      0.000000000000  0.000000000000
  13   9  0.388016992198  0.000000000000      0.178670189055  0.000000000000      0.000000000000  0.000000000000
  13  10 -0.147218647643  0.000000000000      0.469083919605  0.000000000000      0.000000000000  0.000000000000
  13  11 -0.167729474743  0.000000000000      0.078565798129  0.000000000000     -0.000000000000  0.000000000000
  13  12 -0.448887542840  0.000000000000     -0.177951669640  0.000000000000     -0.000000000000  0.000000000000
  13  13  0.110145171879  0.000000000000     -0.414258224380  0.000000000000     -0.000000000000  0.000000000000
  13  14  0.167022198691  0.000000000000     -0.081793980825  0.000000000000     -0.000000000000  0.000000000000
  13  15  0.064154181873  0.000000000000     -0.037865952255  0.000000000000     -0.000000000000  0.000000000000
  14   1 -0.000000000000  0.000000000000      0.000000000000  0.000000000000      0.395009120768  0.000000000000
  14   2  0.000000000000  0.000000000000     -0.000000000000  0.000000000000      0.224085566249  0.000000000000
  14   3 -0.000000000000  0.000000000000      0.000000000000  0.000000000000      0.549950262332  0.000000000000
  14   4  0.000000000000  0.000000000000     -0.000000000000  0.000000000000      0.206101444343  0.000000000000
  14   5 -0.000000000000  0.000000000000     -0.000000000000  0.000000000000      0.375630872900  0.000000000000
  14   6  0.010399920998  0.000000000000      0.011872624862  0.000000000000     -0.010381998526  0.000000000000
  14   7 -0.010399920998  0.000000000000     -0.011872624862  0.000000000000     -0.010381998526  0.000000000000
  14   8 -0.000000000000  0.000000000000     -0.000000000000  0.000000000000     -0.033911817043  0.000000000000
  14   9 -0.000000000000  0.000000000000     -0.000000000000  0.000000000000      0.121972428030  0.000000000000
  14  10  0.000000000000  0.000000000000     -0.000000000000  0.000000000000     -0.376636807902  0.000000000000
  14  11  0.000000000000  0.000000000000      0.000000000000  0.000000000000      0.104838364593  0.000000000000
  14  12  0.000000000000  0.000000000000      0.000000000000  0.000000000000     -0.343880838550  0.000000000000
  14  13  0.000000000000  0.000000000000      0.000000000000  0.000000000000      0.104370663257  0.000000000000
  14  14 -0.000000000000  0.000000000000      0.000000000000  0.000000000000     -0.091949424328  0.000000000000
  14  15  0.000000000000  0.000000000000     -0.000000000000  0.000000000000     -0.023289098204  0.000000000000
  15   1  0.000000000000  0.000000000000     -0.000000000000  0.000000000000      0.028178057149  0.000000000000
  15   2 -0.000000000000  0.000000000000      0.000000000000  0.000000000000     -0.407073452831  0.000000000000
  15   3 -0.000000000000  0.000000000000      0.000000000000  0.000000000000     -0.186966227252  0.000000000000
  15   4  0.000000000000  0.000000000000      0.000000000000  0.000000000000     -0.394669002951  0.000000000000
  15   5 -0.000000000000  0.000000000000      0.000000000000  0.000000000000      0.035850216618  0.000000000000
  15   6 -0.073184777035  0.000000000000     -0.168672376974  0.000000000000      0.056604213087  0.000000000000
  15   7  0.073184777035  0.000000000000      0.168672376974  0.000000000000      0.056604213087  0.000000000000
  15   8 -0.000000000000  0.000000000000      0.000000000000  0.000000000000      0.082544932690  0.000000000000
  15   9  0.000000000000  0.000000000000     -0.000000000000  0.000000000000      0.309849749169  0.000000000000
  15  10  0.000000000000  0.000000000000     -0.000000000000  0.000000000000     -0.154025882356  0.000000000000
  15  11  0.000000000000  0.000000000000      0.000000000000  0.000000000000      0.391045578254  0.000000000000
  15  12 -0.000000000000  0.000000000000      0.000000000000  0.000000000000     -0.151256061804  0.000000000000
  15  13 -0.000000000000  0.000000000000     -0.000000000000  0.000000000000      0.313824014030  0.000000000000
  15  14  0.000000000000  0.000000000000     -0.000000000000  0.000000000000     -0.396852658113  0.000000000000
  15  15 -0.000000000000  0.000000000000      0.000000000000  0.000000000000     -0.095676760650  0.000000000000
  16   1 -0.063610534093  0.000000000000      0.031655014899  0.000000000000      0.000000000000  0.000000000000
  16   2  0.062670794572  0.000000000000      0.195823602239  0.000000000000      0.000000000000  0.000000000000
  16   3 -0.031592215720  0.000000000000     -0.068785687914  0.000000000000     -0.000000000000  0.000000000000
  16   4  0.110768927304  0.000000000000      0.160011084939  0.000000000000     -0.000000000000  0.000000000000
  16   5  0.054963015292  0.000000000000     -0.026980856007  0.000000000000     -0.000000000000  0.000000000000
  16   6 -0.080999119408  0.000000000000     -0.138987764513  0.000000000000     -0.002590780621  0.000000000000
  16   7 -0.080999119408  0.000000000000     -0.138987764513  0.000000000000      0.002590780621  0.000000000000
  16   8 -0.052091941860  0.000000000000     -0.113995543643  0.000000000000      0.000000000000  0.000000000000
  16   9 -0.216520586763  0.000000000000      0.245860774390  0.000000000000     -0.000000000000  0.000000000000
  16  10 -0.233706703627  0.000000000000      0.347360910049  0.000000000000     -0.000000000000  0.000000000000
  16  11 -0.109974613801  0.000000000000     -0.247150091453  0.000000000000     -0.000000000000  0.000000000000
  16  12  0.412787657536  0.000000000000      0.044160317002  0.000000000000     -0.000000000000  0.000000000000
  16  13  0.308921722201  0.000000000000      0.002494414421  0.000000000000      0.000000000000  0.000000000000
  16  14  0.031939069075  0.000000000000      0.063442553887  0.000000000000     -0.000000000000  0.000000000000
  16  15 -0.170764732633  0.000000000000     -0.424350716925  0.000000000000     -0.000000000000  0.000000000000
  17   1  0.000000000000  0.000000000000      0.000000000000  0.000000000000      0.449352853255  0.000000000000
  17   2 -0.000000000000  0.000000000000     -0.000000000000  0.000000000000      0.417970451259  0.000000000000
  17   3  0.000000000000  0.000000000000     -0.000000000000  0.000000000000     -0.001139290141  0.000000000000
  17   4 -0.000000000000  0.000000000000     -0.000000000000  0.000000000000     -0.433308442586  0.000000000000
  17   5 -0.000000000000  0.000000000000      0.000000000000  0.000000000000     -0.467853674585  0.000000000000
  17   6 -0.006491140515  0.000000000000     -0.003166040721  0.000000000000     -0.000409831606  0.000000000000
  17   7  0.006491140515  0.000000000000      0.003166040721  0.000000000000     -0.000409831606  0.000000000000
  17   8 -0.000000000000  0.000000000000     -0.000000000000  0.000000000000     -0.006207010875  0.000000000000
  17   9  0.000000000000  0.000000000000     -0.000000000000  0.000000000000     -0.238167977822  0.000000000000
  17  10  0.000000000000  0.000000000000     -0.000000000000  0.000000000000     -0.206885583938  0.000000000000
  17  11  0.000000000000  0.000000000000      0.000000000000  0.000000000000     -0.013931618838  0.000000000000
  17  12 -0.000000000000  0.000000000000     -0.000000000000  0.000000000000      0.233543108744  0.000000000000
  17  13 -0.000000000000  0.000000000000     -0.000000000000  0.000000000000      0.249054981360  0.000000000000
  17  14 -0.000000000000  0.000000000000     -0.000000000000  0.000000000000     -0.016657662090  0.000000000000
  17  15 -0.000000000000  0.000000000000      0.000000000000  0.000000000000      0.005196535958  0.000000000000
  18   1  0.000000000000  0.000000000000      0.000000000000  0.000000000000      0.478239092239  0.000000000000
  18   2 -0.000000000000  0.000000000000      0.000000000000  0.000000000000     -0.085704330713  0.000000000000
  18   3 -0.000000000000  0.000000000000      0.000000000000  0.000000000000     -0.478577114339  0.000000000000
  18   4  0.000000000000  0.000000000000      0.000000000000  0.000000000000     -0.062256479378  0.000000000000
  18   5 -0.000000000000  0.000000000000     -0.000000000000  0.000000000000      0.431573441165  0.000000000000
  18   6  0.062997927049  0.000000000000      0.178951773376  0.000000000000     -0.059079020223  0.000000000000
  18   7 -0.062997927049  0.000000000000     -0.178951773376  0.000000000000     -0.059079020223  0.000000000000
  18   8 -0.000000000000  0.000000000000     -0.000000000000  0.000000000000     -0.108978575589  0.000000000000
  18   9  0.000000000000  0.000000000000      0.000000000000  0.000000000000     -0.288307913234  0.000000000000
  18  10 -0.000000000000  0.000000000000      0.000000000000  0.000000000000      0.052187025630  0.000000000000
  18  11 -0.000000000000  0.000000000000      0.000000000000  0.000000000000      0.290068533554  0.000000000000
  18  12  0.000000000000  0.000000000000      0.000000000000  0.000000000000      0.027279755978  0.000000000000
  18  13  0.000000000000  0.000000000000     -0.000000000000  0.000000000000     -0.256302066227  0.000000000000
  18  14 -0.000000000000  0.000000000000     -0.000000000000  0.000000000000      0.029661706929  0.000000000000
  18  15 -0.000000000000  0.000000000000     -0.000000000000  0.000000000000      0.128969735579  0.000000000000
  19   1  0.000000000000  0.000000000000      0.000000000000  0.000000000000     -0.395243161446  0.000000000000
  19   2 -0.000000000000  0.000000000000     -0.000000000000  0.000000000000      0.477146851308  0.000000000000
  19   3 -0.000000000000  0.000000000000      0.000000000000  0.000000000000     -0.090257121481  0.000000000000
  19   4  0.000000000000  0.000000000000      0.000000000000  0.000000000000     -0.388830187164  0.000000000000
  19   5  0.000000000000  0.000000000000     -0.000000000000  0.000000000000      0.393840097760  0.000000000000
  19   6 -0.001341812178  0.000000000000     -0.017087042046  0.000000000000      0.007732248101  0.000000000000
  19   7  0.001341812178  0.000000000000      0.017087042046  0.000000000000      0.007732248101  0.000000000000
  19   8 -0.000000000000  0.000000000000     -0.000000000001  0.000000000000      0.014796239966  0.000000000000
  19   9  0.000000000000  0.000000000000     -0.000000000000  0.000000000000      0.252874232248  0.000000000000
  19  10  0.000000000000  0.000000000000     -0.000000000000  0.000000000000     -0.304429063360  0.000000000000
  19  11 -0.000000000000  0.000000000000      0.000000000000  0.000000000000      0.052371701557  0.000000000000
  19  12  0.000000000000  0.000000000000      0.000000000000  0.000000000000      0.257359526934  0.000000000000
  19  13  0.000000000000  0.000000000000     -0.000000000000  0.000000000000     -0.272110633500  0.000000000000
  19  14 -0.000000000000  0.000000000000      0.000000000000  0.000000000000      0.026365784370  0.000000000000
  19  15 -0.000000000000  0.000000000000      0.000000000000  0.000000000000     -0.020097188479  0.000000000000
  20   1 -0.035198096340  0.000000000000     -0.009368887905  0.000000000000     -0.000000000000  0.000000000000
  20   2  0.052833272907  0.000000000000      0.075433823064  0.000000000000      0.000000000000  0.000000000000
  20   3  0.109382367259  0.000000000000     -0.065379434212  0.000000000000     -0.000000000000  0.000000000000
  20   4 -0.024968451076  0.000000000000     -0.123125267016  0.000000000000     -0.000000000000  0.000000000000
  20   5 -0.068209677264  0.000000000000      0.046260516341  0.000000000000      0.000000000000  0.000000000000
  20   6 -0.318969626713  0.000000000000     -0.185494128905  0.000000000000     -0.057551181767  0.000000000000
  20   7 -0.318969626713  0.000000000000     -0.185494128905  0.000000000000      0.057551181767  0.000000000000
  20   8  0.137341202084  0.000000000000      0.576782615941  0.000000000000      0.000000000000  0.000000000000
  20   9 -0.112621349365  0.000000000000      0.030557098953  0.000000000000      0.000000000000  0.000000000000
  20  10 -0.034157974147  0.000000000000      0.101245629210  0.000000000000     -0.000000000000  0.000000000000
  20  11  0.068076609863  0.000000000000     -0.081626247980  0.000000000000      0.000000000000  0.000000000000
  20  12 -0.104018778368  0.000000000000     -0.057026879018  0.000000000000      0.000000000000  0.000000000000
  20  13 -0.201236246949  0.000000000000      0.162469668692  0.000000000000     -0.000000000000  0.000000000000
  20  14  0.111293939179  0.000000000000     -0.041050449785  0.000000000000      0.000000000000  0.000000000000
  20  15  0.408378339033  0.000000000000     -0.150902824069  0.000000000000     -0.000000000000  0.000000000000
  21   1  0.000000000000  0.000000000000     -0.000000000000  0.000000000000      0.125040074189  0.000000000000
  21   2  0.000000000000  0.000000000000      0.000000000000  0.000000000000     -0.396141674654  0.000000000000
  21   3  0.000000000000  0.000000000000     -0.000000000000  0.000000000000      0.509297016284  0.000000000000
  21   4 -0.000000000000  0.000000000000      0.000000000000  0.000000000000     -0.487614764453  0.000000000000
  21   5  0.000000000000  0.000000000000      0.000000000000  0.000000000000      0.234327305796  0.000000000000
  21   6  0.021066251689  0.000000000000      0.075913781921  0.000000000000     -0.025322860517  0.000000000000
  21   7 -0.021066251689  0.000000000000     -0.075913781921  0.000000000000     -0.025322860517  0.000000000000
  21   8 -0.000000000000  0.000000000000      0.000000000000  0.000000000000     -0.045760968405  0.000000000000
  21   9  0.000000000000  0.000000000000      0.000000000000  0.000000000000     -0.050525650156  0.000000000000
  21  10 -0.000000000000  0.000000000000      0.000000000000  0.000000000000      0.227092484762  0.000000000000
  21  11 -0.000000000000  0.000000000000     -0.000000000000  0.000000000000     -0.313170803463  0.000000000000
  21  12 -0.000000000000  0.000000000000     -0.000000000000  0.000000000000      0.290718287897  0.000000000000
  21  13 -0.000000000000  0.000000000000      0.000000000000  0.000000000000     -0.120333544296  0.000000000000
  21  14  0.000000000000  0.000000000000     -0.000000000000  0.000000000000     -0.065285906721  0.000000000000
  21  15 -0.000000000000  0.000000000000     -0.000000000000  0.000000000000      0.064238571995  0.000000000000
  22   1  0.175499686657  0.000000000000     -0.024182777798  0.000000000000      0.000000000000  0.000000000000
  22   2 -0.052050750519  0.000000000000     -0.010623905115  0.000000000000      0.000000000000  0.000000000000
  22   3 -0.081249032873  0.000000000000     -0.129019352936  0.000000000000     -0.000000000000  0.000000000000
  22   4  0.032701115266  0.000000000000     -0.011593138745  0.000000000000      0.000000000000  0.000000000000
  22   5 -0.131350470231  0.000000000000      0.101243623914  0.000000000000     -0.000000000000  0.000000000000
  22   6  0.040650110754  0.000000000000      0.024296901008  0.000000000000      0.004648116317  0.000000000000
  22   7  0.040650110754  0.000000000000      0.024296901008  0.000000000000     -0.004648116317  0.000000000000
  22   8 -0.016176918311  0.000000000000     -0.053599956191  0.000000000000      0.000000000000  0.000000000000
  22   9  0.576974527306  0.000000000000      0.022337371686  0.000000000000     -0.000000000000  0.000000000000
  22  10 -0.074335961519  0.000000000000      0.071557639489  0.000000000000     -0.000000000000  0.000000000000
  22  11 -0.225483674511  0.000000000000     -0.453237302645  0.000000000000      0.000000000000  0.000000000000
  22  12  0.132463871918  0.000000000000      0.005334207038  0.000000000000     -0.000000000000  0.000000000000
  22  13 -0.326803345040  0.000000000000      0.419757672248  0.000000000000      0.000000000000  0.000000000000
  22  14 -0.031270403792  0.000000000000     -0.040580331670  0.000000000000      0.000000000000  0.000000000000
  22  15 -0.051622081048  0.000000000000     -0.001337774898  0.000000000000     -0.000000000000  0.000000000000
  23   1  0.000000000000  0.000000000000     -0.000000000000  0.000000000000     -0.201416622569  0.000000000000
  23   2 -0.000000000000  0.000000000000      0.000000000000  0.000000000000      0.056658370614  0.000000000000
  23   3 -0.000000000000  0.000000000000     -0.000000000000  0.000000000000     -0.000295993532  0.000000000000
  23   4  0.000000000000  0.000000000000     -0.000000000000  0.000000000000      0.024097543739  0.000000000000
  23   5 -0.000000000000  0.000000000000     -0.000000000000  0.000000000000     -0.154582199065  0.000000000000
  23   6  0.116147510918  0.000000000000      0.438246769085  0.000000000000     -0.131828999085  0.000000000000
  23   7 -0.116147510918  0.000000000000     -0.438246769085  0.000000000000     -0.131828999085  0.000000000000
  23   8 -0.000000000000  0.000000000000     -0.000000000000  0.000000000000     -0.256042188323  0.000000000000
  23   9  0.000000000000  0.000000000000     -0.000000000000  0.000000000000      0.165454540004  0.000000000000
  23  10 -0.000000000000  0.000000000000      0.000000000000  0.000000000000     -0.043345351405  0.000000000000
  23  11 -0.000000000000  0.000000000000     -0.000000000000  0.000000000000      0.006933599231  0.000000000000
  23  12  0.000000000000  0.000000000000      0.000000000000  0.000000000000     -0.037976688473  0.000000000000
  23  13 -0.000000000000  0.000000000000      0.000000000000  0.000000000000      0.150687788939  0.000000000000
  23  14  0.000000000000  0.000000000000     -0.000000000000  0.000000000000     -0.432262138827  0.000000000000
  23  15 -0.000000000000  0.000000000000     -0.000000000000  0.000000000000      0.424295558926  0.000000000000
  24   1  0.031963130513  0.000000000000     -0.313388104397  0.000000000000      0.000000000000  0.000000000000
  24   2 -0.334986038262  0.000000000000     -0.083786218264  0.000000000000     -0.000000000000  0.000000000000
  24   3  0.053016988884  0.000000000000      0.103078499260  0.000000000000      0.000000000000  0.000000000000
  24   4  0.147344994259  0.000000000000     -0.322192169251  0.000000000000     -0.000000000000  0.000000000000
  24   5 -0.246186016804  0.000000000000     -0.162746843452  0.000000000000      0.000000000000  0.000000000000
  24   6  0.013773991554  0.000000000000      0.018346826305  0.000000000000      0.000097619067  0.000000000000
  24   7  0.013773991554  0.000000000000      0.018346826305  0.000000000000     -0.000097619067  0.000000000000
  24   8  0.001606351029  0.000000000000      0.005733871652  0.000000000000     -0.000000000000  0.000000000000
  24   9  0.046046018647  0.000000000000     -0.174111209908  0.000000000000      0.000000000000  0.000000000000
  24  10 -0.350089243257  0.000000000000      0.242733123093  0.000000000000      0.000000000000  0.000000000000
  24  11  0.152647161860  0.000000000000      0.328164754854  0.000000000000     -0.000000000000  0.000000000000
  24  12  0.405688389085  0.000000000000     -0.127378177049  0.000000000000      0.000000000000  0.000000000000
  24  13 -0.145284467562  0.000000000000     -0.060560807000  0.000000000000     -0.000000000000  0.000000000000
  24  14 -0.023864025266  0.000000000000     -0.040601078777  0.000000000000      0.000000000000  0.000000000000
  24  15  0.007241064185  0.000000000000      0.040373831286  0.000000000000     -0.000000000000  0.000000000000
  25   1 -0.026047813868  0.000000000000     -0.434194414108  0.000000000000     -0.000000000000  0.000000000000
  25   2  0.168631004886  0.000000000000      0.189160154789  0.000000000000      0.000000000000  0.000000000000
  25   3  0.390058434406  0.000000000000     -0.187089676970  0.000000000000     -0.000000000000  0.000000000000
  25   4 -0.042086715852  0.000000000000     -0.184299915263  0.000000000000      0.000000000000  0.000000000000
  25   5  0.311163292596  0.000000000000      0.295909902885  0.000000000000      0.000000000000  0.000000000000
  25   6  0.091026381895  0.000000000000      0.046759083896  0.000000000000      0.026391087707  0.000000000000
  25   7  0.091026381895  0.000000000000      0.046759083896  0.000000000000     -0.026391087707  0.000000000000
  25   8 -0.043559377171  0.000000000000     -0.134261935179  0.000000000000      0.000000000000  0.000000000000
  25   9 -0.183914950868  0.000000000000     -0.209787993757  0.000000000000      0.000000000000  0.000000000000
  25  10 -0.059984539442  0.000000000000      0.182108827374  0.000000000000     -0.000000000000  0.000000000000
  25  11  0.179929832506  0.000000000000     -0.104673446349  0.000000000000      0.000000000000  0.000000000000
  25  12 -0.173451391880  0.000000000000     -0.042555534559  0.000000000000     -0.000000000000  0.000000000000
  25  13  0.022696638229  0.000000000000      0.273768257372  0.000000000000     -0.000000000000  0.000000000000
  25  14  0.076683603357  0.000000000000     -0.061284747930  0.000000000000     -0.000000000000  0.000000000000
  25  15 -0.133419783953  0.000000000000      0.065727905737  0.000000000000      0.000000000000  0.000000000000
  26   1 -0.021637656820  0.000000000000      0.136313852807  0.000000000000      0.000000000000  0.000000000000
  26   2 -0.380580093597  0.000000000000     -0.267600354048  0.000000000000     -0.000000000000  0.000000000000
  26   3  0.611055581301  0.000000000000     -0.282468358984  0.000000000000      0.000000000000  0.000000000000
  26   4 -0.037913456740  0.000000000000      0.474079787760  0.000000000000      0.000000000000  0.000000000000
  26   5 -0.151586549243  0.000000000000     -0.094101556301  0.000000000000     -0.000000000000  0.000000000000
  26   6  0.001011063013  0.000000000000     -0.003850791802  0.000000000000      0.004303546609  0.000000000000
  26   7  0.001011063013  0.000000000000     -0.003850791802  0.000000000000     -0.004303546609  0.000000000000
  26   8 -0.001911146331  0.000000000000     -0.005917984341  0.000000000000     -0.000000000000  0.000000000000
  26   9 -0.032428009215  0.000000000000     -0.022090430633  0.000000000000     -0.000000000000  0.000000000000
  26  10 -0.079480728762  0.000000000000     -0.059790890654  0.000000000000     -0.000000000000  0.000000000000
  26  11  0.151323136279  0.000000000000     -0.069291132412  0.000000000000      0.000000000000  0.000000000000
  26  12 -0.010204445339  0.000000000000      0.106652017674  0.000000000000      0.000000000000  0.000000000000
  26  13 -0.003671458660  0.000000000000      0.032551295090  0.000000000000      0.000000000000  0.000000000000
  26  14 -0.024139527572  0.000000000000      0.029457617332  0.000000000000      0.000000000000  0.000000000000
  26  15 -0.006958739053  0.000000000000     -0.003068975896  0.000000000000      0.000000000000  0.000000000000
  27   1  0.046625006680  0.000000000000     -0.479057185284  0.000000000000      0.000000000000  0.000000000000
  27   2  0.382039360806  0.000000000000      0.254099081945  0.000000000000     -0.000000000000  0.000000000000
  27   3 -0.026865000422  0.000000000000      0.026873733565  0.000000000000      0.000000000000  0.000000000000
  27   4 -0.041980828702  0.000000000000      0.450502386393  0.000000000000     -0.000000000000  0.000000000000
  27   5 -0.416239774882  0.000000000000     -0.287961458872  0.000000000000     -0.000000000000  0.000000000000
  27   6 -0.014092974817  0.000000000000      0.003193189142  0.000000000000     -0.010042406376  0.000000000000
  27   7 -0.014092974817  0.000000000000      0.003193189142  0.000000000000      0.010042406376  0.000000000000
  27   8 -0.001850582187  0.000000000000     -0.010435774060  0.000000000000     -0.000000000000  0.000000000000
  27   9  0.030725319398  0.000000000000     -0.149658062654  0.000000000000     -0.000000000000  0.000000000000
  27  10  0.141413810465  0.000000000000      0.052690596335  0.000000000000      0.000000000000  0.000000000000
  27  11  0.004692681774  0.000000000000      0.047490924138  0.000000000000     -0.000000000000  0.000000000000
  27  12 -0.033046562838  0.000000000000      0.136290358745  0.000000000000      0.000000000000  0.000000000000
  27  13 -0.132011212706  0.000000000000     -0.088843329406  0.000000000000      0.000000000000  0.000000000000
  27  14  0.013387470029  0.000000000000      0.030192161496  0.000000000000      0.000000000000  0.000000000000
  27  15 -0.000697885388  0.000000000000     -0.016447590079  0.000000000000     -0.000000000000  0.000000000000
  28   1 -0.044110060784  0.000000000000      0.239012466031  0.000000000000     -0.000000000000  0.000000000000
  28   2  0.126651362430  0.000000000000      0.174186966904  0.000000000000     -0.000000000000  0.000000000000
  28   3  0.003281307537  0.000000000000      0.001774614900  0.000000000000      0.000000000000  0.000000000000
  28   4  0.055310708370  0.000000000000      0.240163375568  0.000000000000      0.000000000000  0.000000000000
  28   5  0.166623972165  0.000000000000      0.085538660881  0.000000000000      0.000000000000  0.000000000000
  28   6  0.096908123015  0.000000000000      0.139658263777  0.000000000000     -0.020694171930  0.000000000000
  28   7  0.096908123015  0.000000000000      0.139658263777  0.000000000000      0.020694171930  0.000000000000
  28   8  0.048375019061  0.000000000000      0.221787591865  0.000000000000     -0.000000000000  0.000000000000
  28   9 -0.036985164964  0.000000000000     -0.147899971207  0.000000000000      0.000000000000  0.000000000000
  28  10 -0.076844561834  0.000000000000      0.223373488327  0.000000000000      0.000000000000  0.000000000000
  28  11 -0.014489904679  0.000000000000      0.000644182434  0.000000000000     -0.000000000000  0.000000000000
  28  12  0.230305000608  0.000000000000      0.063236307778  0.000000000000     -0.000000000000  0.000000000000
  28  13 -0.071280020917  0.000000000000     -0.113128739845  0.000000000000     -0.000000000000  0.000000000000
  28  14 -0.305585543859  0.000000000000     -0.612516767271  0.000000000000      0.000000000000  0.000000000000
  28  15  0.114817743519  0.000000000000      0.229394721445  0.000000000000     -0.000000000000  0.000000000000
  29   1  0.055436575140  0.000000000000     -0.457368382294  0.000000000000      0.000000000000  0.000000000000
  29   2 -0.266366346105  0.000000000000     -0.208215468559  0.000000000000      0.000000000000  0.000000000000
  29   3 -0.217158063167  0.000000000000      0.098632783174  0.000000000000      0.000000000000  0.000000000000
  29   4 -0.008041721749  0.000000000000      0.332168919706  0.000000000000      0.000000000000  0.000000000000
  29   5  0.386205737959  0.000000000000      0.244845230864  0.000000000000     -0.000000000000  0.000000000000
  29   6 -0.101554363574  0.000000000000      0.012088941953  0.000000000000     -0.058739352907  0.000000000000
  29   7 -0.101554363574  0.000000000000      0.012088941953  0.000000000000      0.058739352907  0.000000000000
  29   8  0.028993249125  0.000000000000      0.043235580179  0.000000000000     -0.000000000000  0.000000000000
  29   9  0.043666467585  0.000000000000      0.149721521078  0.000000000000     -0.000000000000  0.000000000000
  29  10  0.154906661169  0.000000000000      0.044648706276  0.000000000000     -0.000000000000  0.000000000000
  29  11  0.100559001365  0.000000000000     -0.053031234851  0.000000000000      0.000000000000  0.000000000000
  29  12  0.065167798692  0.000000000000     -0.136983956997  0.000000000000     -0.000000000000  0.000000000000
  29  13 -0.076305038347  0.000000000000     -0.128420722855  0.000000000000      0.000000000000  0.000000000000
  29  14 -0.346888188996  0.000000000000      0.144491047802  0.000000000000      0.000000000000  0.000000000000
  29  15  0.121753764694  0.000000000000     -0.043814530500  0.000000000000     -0.000000000000  0.000000000000
  30   1 -0.000218572413  0.000000000000      0.019569033234  0.000000000000      0.000000000000  0.000000000000
  30   2  0.011313923954  0.000000000000      0.022249973840  0.000000000000     -0.000000000000  0.000000000000
  30   3 -0.026079433000  0.000000000000      0.013533755602  0.000000000000     -0.000000000000  0.000000000000
  30   4  0.006567482822  0.000000000000      0.048631879558  0.000000000000      0.000000000000  0.000000000000
  30   5  0.029392763171  0.000000000000      0.026484176600  0.000000000000     -0.000000000000  0.000000000000
  30   6 -0.194793515111  0.000000000000     -0.415801107367  0.000000000000      0.247452975214  0.000000000000
  30   7 -0.194793515111  0.000000000000     -0.415801107367  0.000000000000     -0.247452975214  0.000000000000
  30   8  0.012493294412  0.000000000000     -0.438486171420  0.000000000000      0.000000000000  0.000000000000
  30   9 -0.003823624378  0.000000000000      0.021315401112  0.000000000000      0.000000000000  0.000000000000
  30  10 -0.037301955757  0.000000000000      0.019443973912  0.000000000000     -0.000000000000  0.000000000000
  30  11  0.038260099648  0.000000000000     -0.018891780343  0.000000000000      0.000000000000  0.000000000000
  30  12  0.034224345194  0.000000000000      0.026546857830  0.000000000000     -0.000000000000  0.000000000000
  30  13 -0.067543222525  0.000000000000     -0.032876183183  0.000000000000     -0.000000000000  0.000000000000
  30  14 -0.012480939811  0.000000000000     -0.139121414732  0.000000000000      0.000000000000  0.000000000000
  30  15  0.151425106364  0.000000000000      0.451194544170  0.000000000000      0.000000000000  0.000000000000
  31   1 -0.002639971425  0.000000000000     -0.090018139794  0.000000000000      0.000000000000  0.000000000000
  31   2 -0.015943312794  0.000000000000     -0.001521762796  0.000000000000      0.000000000000  0.000000000000
  31   3 -0.145735890532  0.000000000000      0.074574344493  0.000000000000      0.000000000000  0.000000000000
  31   4 -0.007952310970  0.000000000000      0.040270680304  0.000000000000     -0.000000000000  0.000000000000
  31   5  0.065682417866  0.000000000000      0.055104999134  0.000000000000     -0.000000000000  0.000000000000
  31   6  0.135452049534  0.000000000000      0.018880486204  0.000000000000      0.041190114873  0.000000000000
  31   7  0.135452049534  0.000000000000      0.018880486204  0.000000000000     -0.041190114873  0.000000000000
  31   8 -0.017173340210  0.000000000000      0.065232534508  0.000000000000     -0.000000000000  0.000000000000
  31   9 -0.063734832186  0.000000000000      0.400230597653  0.000000000000     -0.000000000000  0.000000000000
  31  10 -0.289374175621  0.000000000000     -0.176597970934  0.000000000000     -0.000000000000  0.000000000000
  31  11  0.402044885568  0.000000000000     -0.164660934574  0.000000000000      0.000000000000  0.000000000000
  31  12 -0.035106503296  0.000000000000      0.294525561906  0.000000000000      0.000000000000  0.000000000000
  31  13 -0.347743134280  0.000000000000     -0.204506091848  0.000000000000      0.000000000000  0.000000000000
  31  14  0.386948545911  0.000000000000     -0.180782548100  0.000000000000      0.000000000000  0.000000000000
  31  15 -0.094971181481  0.000000000000     -0.019112443100  0.000000000000     -0.000000000000  0.000000000000
  32   1  0.000000000000  0.000000000000      0.000000000000  0.000000000000     -0.006877273321  0.000000000000
  32   2  0.000000000000  0.000000000000      0.000000000000  0.000000000000      0.001371347581  0.000000000000
  32   3  0.000000000000  0.000000000000     -0.000000000000  0.000000000000      0.000556702801  0.000000000000
  32   4  0.000000000000  0.000000000000     -0.000000000000  0.000000000000      0.004700265606  0.000000000000
  32   5  0.000000000000  0.000000000000     -0.000000000000  0.000000000000      0.006347998792  0.000000000000
  32   6 -0.466689359167  0.000000000000     -0.140131516052  0.000000000000     -0.044968474791  0.000000000000
  32   7  0.466689359166  0.000000000000      0.140131516052  0.000000000000     -0.044968474791  0.000000000000
  32   8  0.000000000000  0.000000000000     -0.000000000000  0.000000000000     -0.696805886985  0.000000000000
  32   9  0.000000000000  0.000000000000      0.000000000000  0.000000000000     -0.002661028358  0.000000000000
  32  10 -0.000000000000  0.000000000000     -0.000000000000  0.000000000000      0.001559509252  0.000000000000
  32  11  0.000000000000  0.000000000000      0.000000000000  0.000000000000     -0.000504856679  0.000000000000
  32  12  0.000000000000  0.000000000000      0.000000000000  0.000000000000     -0.000803971553  0.000000000000
  32  13 -0.000000000000  0.000000000000     -0.000000000000  0.000000000000     -0.014596342386  0.000000000000
  32  14 -0.000000000000  0.000000000000     -0.000000000000  0.000000000000      0.070925659609  0.000000000000
  32  15  0.000000000000  0.000000000000      0.000000000000  0.000000000000      0.173723444394  0.000000000000
  33   1 -0.032941566126  0.000000000000     -0.021138123233  0.000000000000     -0.000000000000  0.000000000000
  33   2 -0.131066271796  0.000000000000     -0.077273624331  0.000000000000     -0.000000000000  0.000000000000
  33   3 -0.141309030170  0.000000000000      0.060990544036  0.000000000000     -0.000000000000  0.000000000000
  33   4 -0.032451807208  0.000000000000      0.117968266549  0.000000000000      0.000000000000  0.000000000000
  33   5 -0.061385141201  0.000000000000     -0.007771430774  0.000000000000      0.000000000000  0.000000000000
  33   6  0.364925927379  0.000000000000     -0.266141044641  0.000000000000      0.305097091541  0.000000000000
  33   7  0.364925927380  0.000000000000     -0.266141044641  0.000000000000     -0.305097091541  0.000000000000
  33   8 -0.019287294955  0.000000000000      0.409394501547  0.000000000000     -0.000000000000  0.000000000000
  33   9 -0.094708231131  0.000000000000     -0.067299249274  0.000000000000      0.000000000000  0.000000000000
  33  10  0.170709542776  0.000000000000      0.152687194356  0.000000000000      0.000000000000  0.000000000000
  33  11 -0.006673648211  0.000000000000     -0.009066792871  0.000000000000      0.000000000000  0.000000000000
  33  12 -0.050478173095  0.000000000000     -0.208746646546  0.000000000000     -0.000000000000  0.000000000000
  33  13  0.042288221916  0.000000000000      0.136355331820  0.000000000000     -0.000000000000  0.000000000000
  33  14  0.038454909632  0.000000000000      0.017899949907  0.000000000000      0.000000000000  0.000000000000
  33  15 -0.190333348225  0.000000000000     -0.008540321002  0.000000000000      0.000000000000  0.000000000000
  34   1 -0.081855582037  0.000000000000      0.173502587388  0.000000000000     -0.000000000000  0.000000000000
  34   2 -0.207403347488  0.000000000000     -0.054235914696  0.000000000000     -0.000000000000  0.000000000000
  34   3 -0.338094864216  0.000000000000      0.156562692266  0.000000000000      0.000000000000  0.000000000000
  34   4 -0.082624639526  0.000000000000      0.208190934473  0.000000000000     -0.000000000000  0.000000000000
  34   5 -0.137425859601  0.000000000000     -0.010135551167  0.000000000000     -0.000000000000  0.000000000000
  34   6 -0.112053634760  0.000000000000      0.139528853465  0.000000000000     -0.121059819146  0.000000000000
  34   7 -0.112053634760  0.000000000000      0.139528853465  0.000000000000      0.121059819146  0.000000000000
  34   8 -0.014839078953  0.000000000000     -0.233102505778  0.000000000000      0.000000000000  0.000000000000
  34   9 -0.183005517641  0.000000000000     -0.228112721015  0.000000000000      0.000000000000  0.000000000000
  34  10  0.079769386390  0.000000000000      0.316427696588  0.000000000000     -0.000000000000  0.000000000000
  34  11  0.285234795659  0.000000000000     -0.133404164145  0.000000000000     -0.000000000000  0.000000000000
  34  12 -0.169058550413  0.000000000000     -0.258172148411  0.000000000000     -0.000000000000  0.000000000000
  34  13 -0.002344391955  0.000000000000      0.247826237486  0.000000000000     -0.000000000000  0.000000000000
  34  14  0.313666745819  0.000000000000     -0.120151374348  0.000000000000     -0.000000000000  0.000000000000
  34  15 -0.009656540613  0.000000000000      0.024460146626  0.000000000000      0.000000000000  0.000000000000
  35   1  0.028831081375  0.000000000000      0.261931298780  0.000000000000     -0.000000000000  0.000000000000
  35   2  0.222736695738  0.000000000000      0.187605332400  0.000000000000     -0.000000000000  0.000000000000
  35   3  0.051199091738  0.000000000000      0.074047402289  0.000000000000     -0.000000000000  0.000000000000
  35   4  0.010864857044  0.000000000000      0.298190167017  0.000000000000     -0.000000000000  0.000000000000
  35   5  0.207485572423  0.000000000000      0.197932405090  0.000000000000     -0.000000000000  0.000000000000
  35   6  0.005053200446  0.000000000000     -0.043625619288  0.000000000000      0.018356525515  0.000000000000
  35   7  0.005053200446  0.000000000000     -0.043625619288  0.000000000000     -0.018356525515  0.000000000000
  35   8 -0.011274595339  0.000000000000      0.001374874871  0.000000000000      0.000000000000  0.000000000000
  35   9  0.158606972193  0.000000000000     -0.244740564295  0.000000000000     -0.000000000000  0.000000000000
  35  10 -0.327374413831  0.000000000000     -0.141512476906  0.000000000000     -0.000000000000  0.000000000000
  35  11  0.083401926944  0.000000000000      0.244755675114  0.000000000000      0.000000000000  0.000000000000
  35  12  0.122667882543  0.000000000000     -0.361917567691  0.000000000000      0.000000000000  0.000000000000
  35  13 -0.277010469310  0.000000000000     -0.044196549374  0.000000000000      0.000000000000  0.000000000000
  35  14  0.133668846823  0.000000000000      0.361766623746  0.000000000000     -0.000000000000  0.000000000000
  35  15 -0.043690290154  0.000000000000     -0.085084688338  0.000000000000     -0.000000000000  0.000000000000
  36   1  0.045046413395  0.000000000000      0.091300852349  0.000000000000     -0.000000000000  0.000000000000
  36   2  0.025547531441  0.000000000000      0.094802784381  0.000000000000      0.000000000000  0.000000000000
  36   3 -0.154747305594  0.000000000000      0.071995385500  0.000000000000      0.000000000000  0.000000000000
  36   4 -0.058605337784  0.000000000000     -0.074634199156  0.000000000000     -0.000000000000  0.000000000000
  36   5 -0.046343218419  0.000000000000     -0.096169494266  0.000000000000     -0.000000000000  0.000000000000
  36   6  0.009942677940  0.000000000000     -0.054406239809  0.000000000000      0.031878333681  0.000000000000
  36   7  0.009942677940  0.000000000000     -0.054406239809  0.000000000000     -0.031878333681  0.000000000000
  36   8  0.011012941761  0.000000000000      0.088750705398  0.000000000000     -0.000000000000  0.000000000000
  36   9  0.201054883759  0.000000000000     -0.238123818668  0.000000000000     -0.000000000000  0.000000000000
  36  10 -0.326837151761  0.000000000000      0.016504297607  0.000000000000     -0.000000000000  0.000000000000
  36  11  0.484688484098  0.000000000000     -0.225350393229  0.000000000000      0.000000000000  0.000000000000
  36  12 -0.227438137379  0.000000000000      0.237658282316  0.000000000000      0.000000000000  0.000000000000
  36  13  0.306297475885  0.000000000000      0.002912913149  0.000000000000      0.000000000000  0.000000000000
  36  14 -0.422597277258  0.000000000000      0.206023090179  0.000000000000     -0.000000000000  0.000000000000
  36  15  0.031420809672  0.000000000000     -0.018199891574  0.000000000000     -0.000000000000  0.000000000000
  37   1 -0.038926220726  0.000000000000      0.128471704573  0.000000000000      0.000000000000  0.000000000000
  37   2 -0.108253325102  0.000000000000     -0.037403446341  0.000000000000      0.000000000000  0.000000000000
  37   3 -0.021847850415  0.000000000000     -0.061913736198  0.000000000000     -0.000000000000  0.000000000000
  37   4  0.046042093284  0.000000000000     -0.121802126103  0.000000000000     -0.000000000000  0.000000000000
  37   5  0.143949925318  0.000000000000      0.054174909859  0.000000000000      0.000000000000  0.000000000000
  37   6  0.002631802926  0.000000000000     -0.025283462745  0.000000000000      0.015841372321  0.000000000000
  37   7  0.002631802926  0.000000000000     -0.025283462745  0.000000000000     -0.015841372321  0.000000000000
  37   8 -0.005101825086  0.000000000000      0.000438083513  0.000000000000     -0.000000000000  0.000000000000
  37   9 -0.064777612881  0.000000000000     -0.430153031697  0.000000000000     -0.000000000000  0.000000000000
  37  10  0.265177680485  0.000000000000      0.301492495359  0.000000000000      0.000000000000  0.000000000000
  37  11 -0.089629984885  0.000000000000     -0.179386534087  0.000000000000      0.000000000000  0.000000000000
  37  12  0.084328389669  0.000000000000      0.437252718755  0.000000000000      0.000000000000  0.000000000000
  37  13 -0.312175401603  0.000000000000     -0.360864593839  0.000000000000      0.000000000000  0.000000000000
  37  14  0.129052330716  0.000000000000      0.295114484543  0.000000000000     -0.000000000000  0.000000000000
  37  15 -0.018950482675  0.000000000000     -0.037105540582  0.000000000000      0.000000000000  0.000000000000
  38   1 -0.007445299489  0.000000000000     -0.002280841285  0.000000000000     -0.000000000000  0.000000000000
  38   2  0.010111063638  0.000000000000     -0.012094061621  0.000000000000      0.000000000000  0.000000000000
  38   3 -0.000446442758  0.000000000000      0.001280199286  0.000000000000      0.000000000000  0.000000000000
  38   4 -0.000728340693  0.000000000000     -0.000658146361  0.000000000000     -0.000000000000  0.000000000000
  38   5  0.000335381484  0.000000000000     -0.003277236029  0.000000000000     -0.000000000000  0.000000000000
  38   6 -0.178947116321  0.000000000000      0.308830741944  0.000000000000      0.506800642456  0.000000000000
  38   7 -0.178947116321  0.000000000000      0.308830741944  0.000000000000     -0.506800642456  0.000000000000
  38   8  0.446525418051  0.000000000000     -0.030980089026  0.000000000000     -0.000000000000  0.000000000000
  38   9  0.001568119396  0.000000000000      0.002537122777  0.000000000000     -0.000000000000  0.000000000000
  38  10 -0.003272089431  0.000000000000      0.003364694831  0.000000000000     -0.000000000000  0.000000000000
  38  11 -0.000136948395  0.000000000000      0.001066583006  0.000000000000      0.000000000000  0.000000000000
  38  12 -0.000522800134  0.000000000000     -0.002006491878  0.000000000000      0.000000000000  0.000000000000
  38  13  0.002601695496  0.000000000000      0.002295801955  0.000000000000      0.000000000000  0.000000000000
  38  14  0.000088702604  0.000000000000      0.001452555820  0.000000000000      0.000000000000  0.000000000000
  38  15 -0.026465775524  0.000000000000     -0.173466839019  0.000000000000      0.000000000000  0.000000000000
  39   1 -0.000000000000  0.000000000000     -0.000000000000  0.000000000000     -0.000569062585  0.000000000000
  39   2  0.000000000000  0.000000000000     -0.000000000000  0.000000000000      0.001345414142  0.000000000000
  39   3 -0.000000000000  0.000000000000     -0.000000000000  0.000000000000     -0.000241460117  0.000000000000
  39   4  0.000000000000  0.000000000000      0.000000000000  0.000000000000      0.000269265033  0.000000000000
  39   5  0.000000000000  0.000000000000     -0.000000000000  0.000000000000      0.002507594866  0.000000000000
  39   6  0.199806114114  0.000000000000     -0.353645455809  0.000000000000     -0.537512750367  0.000000000000
  39   7 -0.199806114114  0.000000000000      0.353645455809  0.000000000000     -0.537512750367  0.000000000000
  39   8  0.000000000000  0.000000000000     -0.000000000000  0.000000000000      0.019881699645  0.000000000000
  39   9  0.000000000000  0.000000000000     -0.000000000000  0.000000000000      0.000882948968  0.000000000000
  39  10 -0.000000000000  0.000000000000      0.000000000000  0.000000000000     -0.000409769569  0.000000000000
  39  11  0.000000000000  0.000000000000     -0.000000000000  0.000000000000      0.000053316951  0.000000000000
  39  12  0.000000000000  0.000000000000      0.000000000000  0.000000000000     -0.000114152013  0.000000000000
  39  13 -0.000000000000  0.000000000000     -0.000000000000  0.000000000000     -0.001396719089  0.000000000000
  39  14 -0.000000000000  0.000000000000     -0.000000000000  0.000000000000      0.003182598870  0.000000000000
  39  15 -0.000000000000  0.000000000000      0.000000000000  0.000000000000      0.302932377189  0.000000000000
  40   1 -0.067416674157  0.000000000000     -0.001516356656  0.000000000000     -0.000000000000  0.000000000000
  40   2  0.076169274727  0.000000000000     -0.106745210923  0.000000000000     -0.000000000000  0.000000000000
  40   3  0.000912674613  0.000000000000      0.005538330979  0.000000000000     -0.000000000000  0.000000000000
  40   4  0.027623771085  0.000000000000      0.002995921155  0.000000000000     -0.000000000000  0.000000000000
  40   5  0.006145943705  0.000000000000     -0.012249954517  0.000000000000     -0.000000000000  0.000000000000
  40   6 -0.070548562600  0.000000000000      0.147730296572  0.000000000000      0.246047987320  0.000000000000
  40   7 -0.070548562600  0.000000000000      0.147730296572  0.000000000000     -0.246047987320  0.000000000000
  40   8 -0.842479587351  0.000000000000      0.039130681767  0.000000000000      0.000000000000  0.000000000000
  40   9  0.017285790361  0.000000000000      0.000377163818  0.000000000000     -0.000000000000  0.000000000000
  40  10 -0.022648975671  0.000000000000      0.032367382519  0.000000000000      0.000000000000  0.000000000000
  40  11  0.000157565456  0.000000000000     -0.000454165284  0.000000000000      0.000000000000  0.000000000000
  40  12 -0.008653292802  0.000000000000     -0.002567239217  0.000000000000      0.000000000000  0.000000000000
  40  13 -0.002368873347  0.000000000000      0.004804968083  0.000000000000      0.000000000000  0.000000000000
  40  14  0.004749977590  0.000000000000     -0.005437739070  0.000000000000      0.000000000000  0.000000000000
  40  15  0.283771582291  0.000000000000     -0.093443185092  0.000000000000      0.000000000000  0.000000000000
  41   1 -0.612635661167  0.000000000000     -0.050105461595  0.000000000000     -0.000000000000  0.000000000000
  41   2  0.384037546938  0.000000000000     -0.547022305705  0.000000000000     -0.000000000000  0.000000000000
  41   3  0.020947732816  0.000000000000      0.048999235725  0.000000000000      0.000000000000  0.000000000000
  41   4  0.256229434071  0.000000000000      0.020578799328  0.000000000000      0.000000000000  0.000000000000
  41   5 -0.047680977267  0.000000000000      0.069694213588  0.000000000000     -0.000000000000  0.000000000000
  41   6  0.013061338227  0.000000000000     -0.028185751892  0.000000000000     -0.044939945741  0.000000000000
  41   7  0.013061338227  0.000000000000     -0.028185751892  0.000000000000      0.044939945741  0.000000000000
  41   8  0.118851722123  0.000000000000     -0.008552933862  0.000000000000     -0.000000000000  0.000000000000
  41   9  0.178644691704  0.000000000000      0.009046599608  0.000000000000     -0.000000000000  0.000000000000
  41  10 -0.113658293373  0.000000000000      0.159515174709  0.000000000000     -0.000000000000  0.000000000000
  41  11 -0.001601944416  0.000000000000     -0.013916635891  0.000000000000      0.000000000000  0.000000000000
  41  12 -0.076642398285  0.000000000000     -0.006511659535  0.000000000000     -0.000000000000  0.000000000000
  41  13  0.012180342969  0.000000000000     -0.019765175346  0.000000000000      0.000000000000  0.000000000000
  41  14  0.002608048683  0.000000000000      0.006219973566  0.000000000000      0.000000000000  0.000000000000
  41  15 -0.043595919541  0.000000000000      0.016619709423  0.000000000000     -0.000000000000  0.000000000000
  42   1  0.331917220807  0.000000000000      0.029437913594  0.000000000000      0.000000000000  0.000000000000
  42   2  0.321057722870  0.000000000000     -0.459327597340  0.000000000000      0.000000000000  0.000000000000
  42   3  0.068011769255  0.000000000000      0.148564063870  0.000000000000     -0.000000000000  0.000000000000
  42   4 -0.626291690077  0.000000000000     -0.048379022895  0.000000000000      0.000000000000  0.000000000000
  42   5  0.151591800016  0.000000000000     -0.216519158171  0.000000000000     -0.000000000000  0.000000000000
  42   6  0.004562844282  0.000000000000     -0.009081183984  0.000000000000     -0.014656678590  0.000000000000
  42   7  0.004562844282  0.000000000000     -0.009081183984  0.000000000000      0.014656678590  0.000000000000
  42   8  0.032438204370  0.000000000000      0.000348772712  0.000000000000      0.000000000000  0.000000000000
  42   9 -0.104546494363  0.000000000000     -0.013726753113  0.000000000000     -0.000000000000  0.000000000000
  42  10 -0.095845127442  0.000000000000      0.140243015489  0.000000000000     -0.000000000000  0.000000000000
  42  11 -0.014581242611  0.000000000000     -0.037331077758  0.000000000000     -0.000000000000  0.000000000000
  42  12  0.186289202689  0.000000000000      0.011976109904  0.000000000000     -0.000000000000  0.000000000000
  42  13 -0.044016557692  0.000000000000      0.059452749909  0.000000000000      0.000000000000  0.000000000000
  42  14  0.001437098872  0.000000000000     -0.002122427164  0.000000000000      0.000000000000  0.000000000000
  42  15 -0.012232725770  0.000000000000      0.004710038566  0.000000000000     -0.000000000000  0.000000000000
  43   1  0.643815300220  0.000000000000      0.053969960195  0.000000000000     -0.000000000000  0.000000000000
  43   2  0.197275635370  0.000000000000     -0.286552335552  0.000000000000     -0.000000000000  0.000000000000
  43   3 -0.002546975226  0.000000000000      0.002248739576  0.000000000000      0.000000000000  0.000000000000
  43   4  0.525801007282  0.000000000000      0.039960162232  0.000000000000     -0.000000000000  0.000000000000
  43   5 -0.181807259557  0.000000000000      0.257754688559  0.000000000000      0.000000000000  0.000000000000
  43   6  0.002417341423  0.000000000000     -0.001027303928  0.000000000000     -0.003437068297  0.000000000000
  43   7  0.002417341423  0.000000000000     -0.001027303928  0.000000000000      0.003437068297  0.000000000000
  43   8  0.012767107912  0.000000000000      0.002282906318  0.000000000000     -0.000000000000  0.000000000000
  43   9 -0.196397627623  0.000000000000     -0.018499362242  0.000000000000     -0.000000000000  0.000000000000
  43  10 -0.056388914456  0.000000000000      0.093942070108  0.000000000000      0.000000000000  0.000000000000
  43  11  0.007920648276  0.000000000000     -0.004913341108  0.000000000000     -0.000000000000  0.000000000000
  43  12 -0.155775312757  0.000000000000     -0.009816129860  0.000000000000      0.000000000000  0.000000000000
  43  13  0.056817644317  0.000000000000     -0.071146904127  0.000000000000      0.000000000000  0.000000000000
  43  14  0.000781509484  0.000000000000     -0.010328685984  0.000000000000      0.000000000000  0.000000000000
  43  15 -0.004474242899  0.000000000000      0.001198427856  0.000000000000      0.000000000000  0.000000000000
  44   1 -0.077139641810  0.000000000000     -0.006719554063  0.000000000000     -0.000000000000  0.000000000000
  44   2 -0.019140275330  0.000000000000      0.028081062076  0.000000000000      0.000000000000  0.000000000000
  44   3  0.065991510107  0.000000000000      0.138524706324  0.000000000000      0.000000000000  0.000000000000
  44   4 -0.389595081344  0.000000000000     -0.033348087626  0.000000000000      0.000000000000  0.000000000000
  44   5 -0.487043273411  0.000000000000      0.702487319975  0.000000000000     -0.000000000000  0.000000000000
  44   6 -0.000279173712  0.000000000000      0.005707718746  0.000000000000      0.006833641234  0.000000000000
  44   7 -0.000279173712  0.000000000000      0.005707718746  0.000000000000     -0.006833641234  0.000000000000
  44   8 -0.019019862326  0.000000000000      0.002447254808  0.000000000000     -0.000000000000  0.000000000000
  44   9  0.022453746710  0.000000000000      0.005063326378  0.000000000000     -0.000000000000  0.000000000000
  44  10  0.006217902988  0.000000000000     -0.009707935641  0.000000000000     -0.000000000000  0.000000000000
  44  11 -0.023601789128  0.000000000000     -0.036751445402  0.000000000000      0.000000000000  0.000000000000
  44  12  0.121912131231  0.000000000000      0.019096687375  0.000000000000      0.000000000000  0.000000000000
  44  13  0.144183885653  0.000000000000     -0.215472781764  0.000000000000     -0.000000000000  0.000000000000
  44  14 -0.009920875411  0.000000000000     -0.003695312029  0.000000000000      0.000000000000  0.000000000000
  44  15  0.007046264968  0.000000000000     -0.002464219450  0.000000000000      0.000000000000  0.000000000000
  45   1 -0.010562559699  0.000000000000     -0.002067818135  0.000000000000     -0.000000000000  0.000000000000
  45   2 -0.075925534830  0.000000000000      0.103355338159  0.000000000000     -0.000000000000  0.000000000000
  45   3  0.390274889934  0.000000000000      0.843212002384  0.000000000000     -0.000000000000  0.000000000000
  45   4  0.155349226942  0.000000000000      0.009232012542  0.000000000000      0.000000000000  0.000000000000
  45   5  0.055917072153  0.000000000000     -0.082418595045  0.000000000000      0.000000000000  0.000000000000
  45   6 -0.000809440078  0.000000000000      0.001724527287  0.000000000000      0.002076345904  0.000000000000
  45   7 -0.000809440078  0.000000000000      0.001724527287  0.000000000000     -0.002076345904  0.000000000000
  45   8 -0.005059592895  0.000000000000      0.000040529062  0.000000000000      0.000000000000  0.000000000000
  45   9  0.004371621145  0.000000000000      0.003177782110  0.000000000000      0.000000000000  0.000000000000
  45  10  0.033815601435  0.000000000000     -0.032040399786  0.000000000000     -0.000000000000  0.000000000000
  45  11 -0.118656063860  0.000000000000     -0.256252919532  0.000000000000      0.000000000000  0.000000000000
  45  12 -0.054397846278  0.000000000000      0.003931530177  0.000000000000      0.000000000000  0.000000000000
  45  13 -0.015366338084  0.000000000000      0.027851846861  0.000000000000     -0.000000000000  0.000000000000
  45  14  0.001525983897  0.000000000000      0.000983064195  0.000000000000     -0.000000000000  0.000000000000
  45  15  0.001502701283  0.000000000000     -0.000661612321  0.000000000000      0.000000000000  0.000000000000
